230,0.06528
231,0.064198
232,0.063134
233,0.062087
234,0.061058
235,0.060046
236,0.059051
237,0.058073
238,0.05711
239,0.056164
240,0.055233
241,0.054317
242,0.053417
243,0.052532
244,0.051661
245,0.050805
246,0.049963
247,0.049135
248,0.048321
249,0.04752
250,0.046732
251,0.045958
252,0.045196
253,0.044447
254,0.04371
255,0.042986
256,0.042274
257,0.041573
258,0.040884
259,0.040206
260,0.03954
261,0.038885
262,0.03824
263,0.037606
264,0.036983
265,0.03637
266,0.035767
267,0.035175
268,0.034592
269,0.034018
270,0.033455
271,0.0329
272,0.032355
273,0.031819
274,0.031291
275,0.030773
276,0.030263
277,0.029761
278,0.029268
279,0.028783
280,0.028306
281,0.027837
282,0.027375
283,0.026922
284,0.026475
285,0.026037
286,0.025605
287,0.025181
288,0.024763
289,0.024353
290,0.024083
291,0.023651
292,0.023198
293,0.022823
294,0.022396
295,0.021943
296,0.021647
297,0.021239
298,0.020868
299,0.020527
300,0.020268
301,0.019874
302,0.019562
303,0.019243
304,0.01893
305,0.018569
306,0.018389
307,0.01808
308,0.017736
309,0.017518
310,0.017181
311,0.016876
312,0.016688
313,0.016391
314,0.016088
315,0.015887
316,0.015598
317,0.015258
318,0.015066
319,0.014786
320,0.014512
321,0.01429
322,0.014024
323,0.013785
324,0.013533
325,0.013344
326,0.0131
327,0.012805
328,0.012589
329,0.012372
330,0.012168
331,0.011971
332,0.011711
333,0.011509
334,0.011317
335,0.011087
336,0.010919
337,0.010707
338,0.010513
339,0.010359
340,0.010214
341,0.0099706
342,0.0097373
343,0.0096617
344,0.0094766
345,0.009318
346,0.0091237
347,0.0090272
348,0.0088448
349,0.0087095
350,0.0085495
351,0.0084421
352,0.0082986
353,0.0081358
354,0.0080165
355,0.0078798
356,0.0077258
357,0.0076299
358,0.0074725
359,0.0073645
360,0.0072402
361,0.0070815
362,0.0069558
363,0.0069118
364,0.0067044
365,0.0066373
366,0.0065188
367,0.0064141
368,0.0063028
369,0.0061886
370,0.0060834
371,0.0059632
372,0.0058882
373,0.0057806
374,0.0056685
375,0.0055692
376,0.0054633
377,0.005372
378,0.0052702
379,0.0052057
380,0.0050908
381,0.0050109
382,0.0049309
383,0.0048261
384,0.0047497
385,0.0046611
386,0.0045629
387,0.0044744
388,0.0044032
389,0.0043205
390,0.0042711
391,0.0041996
392,0.0041081
393,0.0040551
394,0.0039589
395,0.0038876
396,0.0038652
397,0.0037816
398,0.003727
399,0.0036436
400,0.0035907
401,0.0035385
402,0.0034543
403,0.0034065
404,0.0033542
405,0.0033025
406,0.0032566
407,0.0031885
408,0.0031389
409,0.0031236
410,0.0030443
411,0.0029696
412,0.002959
413,0.002877
414,0.0028426
415,0.0027843
416,0.002733
417,0.002705
418,0.0026365
419,0.0026173
420,0.0025639
421,0.0025202
422,0.0024637
423,0.0024363
424,0.0023892
425,0.0023515
426,0.0022992
427,0.0022523
428,0.0022498
429,0.0022146
430,0.0021371
431,0.0021144
432,0.0020897
433,0.0020497
434,0.0020197
435,0.0019821
436,0.0019569
437,0.0019385
438,0.0018923
439,0.0018558
440,0.0018275
441,0.0017947
442,0.001756
443,0.0017379
444,0.001709
445,0.0016669
446,0.0016506
447,0.0016306
448,0.0016049
449,0.0015732
450,0.0015354
451,0.0015112
452,0.0015089
453,0.0014796
454,0.0014561
455,0.001417
456,0.0014189
457,0.0013825
458,0.0013538
459,0.0013429
460,0.0013116
461,0.001282
462,0.0012653
463,0.0012681
464,0.0012273
465,0.0012104
466,0.0012014
467,0.0011879
468,0.0011656
469,0.0011481
470,0.0011284
471,0.0011243
472,0.0011012
473,0.0010694
474,0.0010616
475,0.0010488
476,0.0010402
477,0.0010254
478,0.0010181
479,0.00099438
480,0.00097653
481,0.00096859
482,0.00095957
483,0.00093989
484,0.00091996
485,0.0009045
486,0.00091035
487,0.00088901
488,0.00084845
489,0.00085232
490,0.00085302
491,0.00084002
492,0.00081234
493,0.00080476
494,0.00080426
495,0.00077737
496,0.00076182
497,0.00077347
498,0.00076008
499,0.00073794
500,0.00073014
501,0.00072261
502,0.00072384
503,0.00070366
504,0.00069613
505,0.00069113
506,0.00067504
507,0.00065353
508,0.00065495
509,0.00066839
510,0.000634
511,0.00063631
512,0.00061893
513,0.00061886
514,0.00060562
515,0.00060176
516,0.00059598
517,0.0005916
518,0.00057357
519,0.00057081
520,0.00055106
521,0.00055385
522,0.00055493
523,0.00054055
524,0.00054346
525,0.00052606
526,0.00051525
527,0.00050864
528,0.00050483
529,0.00050335
530,0.00048199
531,0.00047241
532,0.00047928
533,0.00047696
534,0.00045995
535,0.00045479
536,0.00045393
537,0.00045304
538,0.00043655
539,0.00042723
540,0.000428
541,0.00042427
542,0.000403
543,0.00040744
544,0.00041019
545,0.00039128
546,0.00039572
547,0.00037392
548,0.00038501
549,0.00037229
550,0.00035888
551,0.00034868
552,0.00035969
553,0.00034793
554,0.00033924
555,0.00034074
556,0.00035437
557,0.00033717
558,0.00032475
559,0.00032799
560,0.00031869
561,0.00030249
562,0.00031598
563,0.00029706
564,0.00030132
565,0.0002969
566,0.00029018
567,0.00028682
568,0.00029036
569,0.00026842
570,0.0002789
571,0.00026134
572,0.00024048
573,0.00026178
574,0.00026217
575,0.00023961
576,0.00024471
577,0.00025194
578,0.00023395
579,0.00022218
580,0.00022564
581,0.00022417
582,0.00022211
583,0.00021973
584,0.00022051
585,0.00020603
586,0.00020397
587,0.00020196
588,0.00020298
589,0.00020978
590,0.00019698
591,0.00018401
592,0.00020539
593,0.00020309
594,0.00018242
595,0.00019538
596,0.00018424
597,0.00017691
598,0.00018195
599,0.00017429
600,0.00018288
601,0.00017266
602,0.0001721
603,0.00016714
604,0.00018755
605,0.00017771
606,0.00017338
607,0.0001724
608,0.00018251
609,0.00016753
610,0.00016511
611,0.00016886
612,0.0001716
613,0.00015898
614,0.00017578
615,0.00016604
616,0.00015073
617,0.00015046
618,0.00016525
619,0.00016671
620,0.00015368
621,0.00015171
622,0.00015167
623,0.00014218
624,0.00014091
625,0.00013447
626,0.00013854
627,0.00014158
628,0.00012594
629,0.0001246
630,0.00013118
631,0.00012693
632,0.00012186
633,0.00011821
634,0.00012185
635,0.00011782
636,0.00011867
637,0.00010806
638,0.00011989
639,0.0001161
640,0.00010696
641,0.00011245
642,0.00010542
643,0.00010899
644,0.00010292
645,9.0656e-05
646,0.00010446
647,8.8853e-05
648,8.7575e-05
649,9.5406e-05
650,9.8563e-05
651,8.3144e-05
652,9.013e-05
653,8.2417e-05
654,7.795e-05
655,7.6075e-05
656,7.2066e-05
657,7.5049e-05
658,6.9215e-05
659,7.0595e-05
660,6.1528e-05
661,7.3026e-05
662,7.0609e-05
663,6.8541e-05
664,7.8005e-05
665,7.1225e-05
666,6.7504e-05
667,6.9722e-05
668,7.5551e-05
669,7.9707e-05
670,6.8963e-05
671,6.4021e-05
672,7.8625e-05
673,6.2839e-05
674,5.8835e-05
675,5.8064e-05
676,7.4872e-05
677,6.7399e-05
678,6.3223e-05
679,5.8888e-05
680,6.9292e-05
681,6.7053e-05
682,5.784e-05
683,6.1664e-05
684,7.892e-05
685,6.0112e-05
686,4.5802e-05
687,6.0305e-05
688,7.0692e-05
689,5.4329e-05
690,5.3503e-05
691,6.0663e-05
692,5.4266e-05
693,4.9463e-05
694,4.6642e-05
695,4.7811e-05
696,5.4161e-05
697,4.115e-05
698,4.2165e-05
699,5.028e-05
700,2.9141e-05
701,3.4793e-05
702,2.0215e-05
703,3.3578e-05
704,2.9771e-05
705,2.5572e-05
706,1.2878e-05
707,1.3098e-05
708,9.1795e-06
709,1.3122e-05
710,8.1285e-06
711,7.2614e-06
712,1e-09
713,1e-09
714,1.9476e-06
715,1e-09
716,1e-09
717,1e-09
718,1e-09
719,1e-09
720,1e-09
721,1e-09
722,1e-09
723,1e-09
724,1e-09
725,1e-09
726,1e-09
727,1e-09
728,1e-09
729,1e-09
730,1e-09
731,1e-09
732,1e-09
733,1e-09
734,1e-09
735,1e-09
736,1e-09
737,1e-09
738,1e-09
739,1e-09
740,1e-09
741,1e-09
742,1e-09
743,1e-09
744,1e-09
745,1e-09
746,1e-09
747,1e-09
748,1e-09
749,1e-09
750,2.398e-06
