230,0.041735
231,0.041014
232,0.040306
233,0.039609
234,0.038925
235,0.038253
236,0.037592
237,0.036943
238,0.036305
239,0.035678
240,0.035062
241,0.034456
242,0.033861
243,0.033276
244,0.032701
245,0.032136
246,0.031581
247,0.031036
248,0.0305
249,0.029973
250,0.029455
251,0.028947
252,0.028447
253,0.027955
254,0.027472
255,0.026998
256,0.026532
257,0.026073
258,0.025623
259,0.02518
260,0.024746
261,0.024318
262,0.023898
263,0.023485
264,0.02308
265,0.022681
266,0.022289
267,0.021904
268,0.021526
269,0.021154
270,0.020789
271,0.02043
272,0.020077
273,0.01973
274,0.019389
275,0.019054
276,0.018725
277,0.018402
278,0.018084
279,0.017772
280,0.017465
281,0.017163
282,0.016867
283,0.016575
284,0.016289
285,0.016008
286,0.015731
287,0.015459
288,0.015192
289,0.01493
290,0.014796
291,0.014432
292,0.014189
293,0.013905
294,0.013653
295,0.013497
296,0.01314
297,0.012917
298,0.012823
299,0.012525
300,0.012331
301,0.012046
302,0.011817
303,0.011664
304,0.011519
305,0.011303
306,0.01114
307,0.010938
308,0.010699
309,0.010559
310,0.010403
311,0.01022
312,0.010109
313,0.0099208
314,0.0096618
315,0.0095257
316,0.0094086
317,0.0092486
318,0.009064
319,0.0089266
320,0.0087485
321,0.0086559
322,0.0084282
323,0.0083378
324,0.0081551
325,0.0080312
326,0.0079288
327,0.0077549
328,0.0076458
329,0.0075126
330,0.0073811
331,0.0071969
332,0.0071372
333,0.0069643
334,0.0068651
335,0.006732
336,0.0066237
337,0.0065431
338,0.0064056
339,0.00631
340,0.0062065
341,0.0061035
342,0.0059887
343,0.0059335
344,0.0058099
345,0.0056995
346,0.0056326
347,0.0054929
348,0.0054019
349,0.0053841
350,0.0052002
351,0.005125
352,0.0050532
353,0.0050075
354,0.0049103
355,0.0048254
356,0.0047736
357,0.0046657
358,0.0046212
359,0.0045413
360,0.0044218
361,0.004337
362,0.0042962
363,0.0042324
364,0.0041247
365,0.0040806
366,0.0040058
367,0.0039344
368,0.0038496
369,0.0038046
370,0.0037555
371,0.0036866
372,0.0036237
373,0.0035433
374,0.0035012
375,0.0034345
376,0.0033943
377,0.0033449
378,0.003284
379,0.003231
380,0.0031572
381,0.0031092
382,0.0030395
383,0.0030198
384,0.0029509
385,0.0028834
386,0.0028513
387,0.0028051
388,0.0027596
389,0.0027216
390,0.0026701
391,0.0026291
392,0.0025824
393,0.0025413
394,0.0024884
395,0.0024558
396,0.0023998
397,0.0023516
398,0.0023466
399,0.0022721
400,0.0022469
401,0.0022146
402,0.0021666
403,0.0021421
404,0.0021034
405,0.0020666
406,0.0020557
407,0.0020149
408,0.0019938
409,0.0019383
410,0.0019312
411,0.0018764
412,0.001853
413,0.0018298
414,0.0017841
415,0.0017662
416,0.0017364
417,0.0017145
418,0.0016833
419,0.0016438
420,0.0016149
421,0.0015778
422,0.0015646
423,0.0015542
424,0.001497
425,0.0014881
426,0.0014749
427,0.0014356
428,0.0014123
429,0.0013751
430,0.0013439
431,0.0013499
432,0.0013306
433,0.0012898
434,0.0012696
435,0.0012513
436,0.0012344
437,0.0012087
438,0.0011845
439,0.0011576
440,0.0011272
441,0.0011338
442,0.0011001
443,0.0010905
444,0.0010765
445,0.0010574
446,0.001042
447,0.0010207
448,0.0010075
449,0.00098984
450,0.00096751
451,0.0009422
452,0.0009228
453,0.00091942
454,0.00091164
455,0.00088575
456,0.00088006
457,0.00086398
458,0.00084434
459,0.00083434
460,0.00082337
461,0.00081579
462,0.00078006
463,0.00079512
464,0.00076811
465,0.00075195
466,0.00074986
467,0.00074019
468,0.00071258
469,0.00071138
470,0.00069058
471,0.00069032
472,0.00068278
473,0.00065244
474,0.00064318
475,0.00064256
476,0.00064269
477,0.00061952
478,0.0006109
479,0.00059175
480,0.00059372
481,0.00058327
482,0.00058195
483,0.00056962
484,0.00056587
485,0.00053933
486,0.00054274
487,0.00053081
488,0.00052513
489,0.00051028
490,0.00051111
491,0.00049133
492,0.00049545
493,0.00048892
494,0.00047228
495,0.00047537
496,0.00045833
497,0.000458
498,0.00044842
499,0.000438
500,0.00044378
501,0.00044532
502,0.00041752
503,0.00041756
504,0.00039916
505,0.00040507
506,0.00040036
507,0.00038556
508,0.00039329
509,0.00037497
510,0.00037813
511,0.00036302
512,0.0003579
513,0.00035076
514,0.00035225
515,0.00035496
516,0.00035076
517,0.0003264
518,0.00033553
519,0.00033604
520,0.00032065
521,0.00031501
522,0.00031537
523,0.00031087
524,0.00030698
525,0.0003027
526,0.00029042
527,0.00029613
528,0.00029571
529,0.00029373
530,0.00028099
531,0.00027249
532,0.00026973
533,0.0002661
534,0.00026466
535,0.00025851
536,0.0002574
537,0.00025347
538,0.00025828
539,0.00024694
540,0.0002244
541,0.00023196
542,0.00023117
543,0.00022439
544,0.00023092
545,0.00021806
546,0.00021907
547,0.00021905
548,0.00021966
549,0.00021299
550,0.00020385
551,0.00019191
552,0.00019379
553,0.00019371
554,0.00018436
555,0.00019119
556,0.0001973
557,0.00016069
558,0.00017853
559,0.00018574
560,0.00016419
561,0.00015864
562,0.00016357
563,0.00015382
564,0.00015799
565,0.00015617
566,0.00015259
567,0.00015084
568,0.00013665
569,0.00013725
570,0.00014086
571,0.00011452
572,0.00013073
573,0.00010751
574,0.00012089
575,0.00011882
576,0.00012432
577,0.00012193
578,0.00010021
579,0.000105
580,0.00011555
581,0.00010482
582,0.00010886
583,9.9737e-05
584,0.00010088
585,9.3995e-05
586,0.0001082
587,9.7858e-05
588,0.00010248
589,0.00010167
590,9.0573e-05
591,8.2124e-05
592,8.4511e-05
593,8.7874e-05
594,8.5712e-05
595,8.8512e-05
596,7.9206e-05
597,8.9414e-05
598,6.8848e-05
599,7.6867e-05
600,7.4777e-05
601,8.5521e-05
602,8.1293e-05
603,6.3305e-05
604,6.9225e-05
605,7.834e-05
606,8.5244e-05
607,8.6072e-05
608,8.3486e-05
609,6.9997e-05
610,6.9028e-05
611,8.3174e-05
612,8.248e-05
613,7.706e-05
614,7.8155e-05
615,7.7141e-05
616,7.8387e-05
617,7.3234e-05
618,6.4101e-05
619,7.1057e-05
620,7.2931e-05
621,6.9885e-05
622,6.5658e-05
623,6.3293e-05
624,5.6973e-05
625,5.9455e-05
626,5.9846e-05
627,5.4259e-05
628,5.774e-05
629,4.9401e-05
630,3.8276e-05
631,4.1269e-05
632,5.4095e-05
633,5.1229e-05
634,4.8732e-05
635,4.5048e-05
636,4.3073e-05
637,4.1616e-05
638,3.4593e-05
639,4.0444e-05
640,4.1278e-05
641,3.5212e-05
642,3.3106e-05
643,3.3486e-05
644,2.1165e-05
645,3.3503e-05
646,3.0393e-05
647,3.3076e-05
648,3.3272e-05
649,2.879e-05
650,2.2869e-05
651,2.2822e-05
652,2.0842e-05
653,2.2633e-05
654,2.855e-05
655,2.9554e-05
656,2.9183e-05
657,2.723e-05
658,2.4471e-05
659,1.4059e-05
660,1.5376e-05
661,2.566e-05
662,2.5385e-05
663,2.3038e-05
664,2.7245e-05
665,2.9756e-05
666,2.561e-05
667,2.1047e-05
668,2.8543e-05
669,1.886e-05
670,3.4978e-05
671,2.7372e-05
672,3.2129e-05
673,2.3439e-05
674,2.2863e-05
675,1.4744e-05
676,2.2195e-05
677,3.0739e-05
678,2.8194e-05
679,2.5364e-05
680,2.6036e-05
681,2.4855e-05
682,1.6729e-05
683,1.2693e-05
684,8.2241e-06
685,1.8459e-05
686,1.6575e-05
687,1.7375e-05
688,1.3861e-05
689,1.4515e-05
690,1.1866e-05
691,6.88e-06
692,5.6623e-06
693,7.4094e-06
694,8.4343e-06
695,1.2415e-05
696,3.4481e-06
697,4.3317e-06
698,1e-09
699,1e-09
700,1e-09
701,1e-09
702,1e-09
703,1e-09
704,1e-09
705,1e-09
706,1e-09
707,1e-09
708,1e-09
709,1e-09
710,1e-09
711,1e-09
712,1e-09
713,1e-09
714,1e-09
715,1e-09
716,1e-09
717,1e-09
718,1e-09
719,1e-09
720,1e-09
721,1e-09
722,1e-09
723,1e-09
724,1e-09
725,1e-09
726,1e-09
727,1e-09
728,1e-09
729,1e-09
730,1e-09
731,1e-09
732,1e-09
733,1e-09
734,1e-09
735,1e-09
736,1e-09
737,1e-09
738,1e-09
739,1e-09
740,1e-09
741,1e-09
742,1e-09
743,1e-09
744,1e-09
745,1e-09
746,1e-09
747,1e-09
748,1e-09
749,1e-09
750,4.2292e-07
