230,0.075633
231,0.074374
232,0.073136
233,0.071919
234,0.070722
235,0.069544
236,0.068387
237,0.067248
238,0.066129
239,0.065028
240,0.063945
241,0.062881
242,0.061834
243,0.060805
244,0.059792
245,0.058797
246,0.057818
247,0.056856
248,0.055909
249,0.054979
250,0.054063
251,0.053163
252,0.052278
253,0.051408
254,0.050552
255,0.049711
256,0.048883
257,0.04807
258,0.047269
259,0.046482
260,0.045709
261,0.044948
262,0.044199
263,0.043464
264,0.04274
265,0.042029
266,0.041329
267,0.040641
268,0.039964
269,0.039299
270,0.038645
271,0.038002
272,0.037369
273,0.036747
274,0.036135
275,0.035534
276,0.034942
277,0.03436
278,0.033788
279,0.033226
280,0.032673
281,0.032129
282,0.031594
283,0.031068
284,0.030551
285,0.030042
286,0.029542
287,0.029051
288,0.028567
289,0.028091
290,0.027686
291,0.02731
292,0.026708
293,0.026219
294,0.02584
295,0.025379
296,0.024914
297,0.024563
298,0.024128
299,0.023675
300,0.0233
301,0.022937
302,0.022609
303,0.022188
304,0.021834
305,0.021458
306,0.021121
307,0.020814
308,0.020443
309,0.020107
310,0.01976
311,0.019493
312,0.019115
313,0.018794
314,0.018473
315,0.018174
316,0.017864
317,0.017636
318,0.017228
319,0.016976
320,0.016682
321,0.016358
322,0.016051
323,0.015809
324,0.015518
325,0.015244
326,0.014979
327,0.014696
328,0.014483
329,0.014169
330,0.013882
331,0.013696
332,0.013379
333,0.01318
334,0.01294
335,0.012705
336,0.012465
337,0.012272
338,0.012038
339,0.011784
340,0.011605
341,0.011425
342,0.01119
343,0.010962
344,0.010836
345,0.01064
346,0.010488
347,0.01023
348,0.010104
349,0.0099013
350,0.0097201
351,0.0095634
352,0.0094428
353,0.009245
354,0.00912
355,0.0089708
356,0.0087865
357,0.0086364
358,0.0085106
359,0.0083323
360,0.0082182
361,0.0080817
362,0.0079277
363,0.0078091
364,0.007644
365,0.0075521
366,0.0073984
367,0.0072502
368,0.0071388
369,0.0070356
370,0.0069006
371,0.0067435
372,0.0066385
373,0.0065706
374,0.0064044
375,0.0062662
376,0.0061909
377,0.0060538
378,0.0059796
379,0.0058345
380,0.0057536
381,0.0056269
382,0.0055601
383,0.0054419
384,0.0053146
385,0.0052541
386,0.0051561
387,0.0050474
388,0.0049879
389,0.004878
390,0.0047916
391,0.0046951
392,0.0046378
393,0.0045451
394,0.0044593
395,0.0043982
396,0.0043156
397,0.0042262
398,0.0041412
399,0.0040955
400,0.0040485
401,0.0039479
402,0.0038809
403,0.0038272
404,0.0037412
405,0.0036981
406,0.0036221
407,0.0035674
408,0.0035204
409,0.0034241
410,0.0033829
411,0.0033236
412,0.0032537
413,0.0031925
414,0.0031455
415,0.0031151
416,0.0030443
417,0.0029774
418,0.0029287
419,0.0028783
420,0.0028013
421,0.0027779
422,0.0027214
423,0.0026789
424,0.0026509
425,0.0025833
426,0.0025288
427,0.0024794
428,0.0024687
429,0.0023972
430,0.0023896
431,0.0023345
432,0.0022922
433,0.0022529
434,0.0022075
435,0.0021795
436,0.0021484
437,0.0021093
438,0.0020663
439,0.0020423
440,0.0019883
441,0.0019595
442,0.0019296
443,0.0018974
444,0.0018735
445,0.0018354
446,0.0017979
447,0.0017678
448,0.0017388
449,0.0017366
450,0.0016724
451,0.0016605
452,0.0016198
453,0.0016126
454,0.0015852
455,0.0015523
456,0.0015327
457,0.0014962
458,0.0014987
459,0.0014696
460,0.0014264
461,0.0014063
462,0.0013805
463,0.0013594
464,0.001344
465,0.0013331
466,0.0013113
467,0.00128
468,0.0012642
469,0.0012482
470,0.0012224
471,0.0012005
472,0.0011805
473,0.0011714
474,0.0011413
475,0.0011352
476,0.0011224
477,0.001106
478,0.0010795
479,0.0010718
480,0.0010605
481,0.0010451
482,0.0010151
483,0.0010108
484,0.00099474
485,0.00098104
486,0.00095761
487,0.00095104
488,0.00093304
489,0.00093287
490,0.00091913
491,0.00089553
492,0.00088734
493,0.00087446
494,0.00084881
495,0.00083953
496,0.00083756
497,0.00082033
498,0.00081599
499,0.0008053
500,0.00078776
501,0.00077549
502,0.00078618
503,0.00075846
504,0.00076486
505,0.00073897
506,0.00073129
507,0.00072156
508,0.00071852
509,0.00069754
510,0.00067496
511,0.00068468
512,0.00068441
513,0.00066249
514,0.00065009
515,0.00064766
516,0.00064293
517,0.0006264
518,0.00062227
519,0.00060511
520,0.00060544
521,0.00059974
522,0.00058127
523,0.00058944
524,0.00057601
525,0.00055854
526,0.00055496
527,0.00057087
528,0.00054667
529,0.00053471
530,0.00053144
531,0.00053758
532,0.00052337
533,0.0005099
534,0.00051572
535,0.00051593
536,0.00048544
537,0.0004829
538,0.00048254
539,0.00048309
540,0.00047707
541,0.00045658
542,0.00046686
543,0.00044783
544,0.00044974
545,0.00044656
546,0.00044379
547,0.00041494
548,0.00041898
549,0.00041794
550,0.00041093
551,0.00040571
552,0.0003943
553,0.0003904
554,0.00039296
555,0.00037987
556,0.00037426
557,0.00038013
558,0.00037635
559,0.00037412
560,0.0003581
561,0.00034969
562,0.00036121
563,0.00033907
564,0.00033399
565,0.00033383
566,0.00034138
567,0.00031392
568,0.00031945
569,0.00030965
570,0.0003165
571,0.00031748
572,0.0003039
573,0.00028949
574,0.00029787
575,0.00029596
576,0.00027993
577,0.00027563
578,0.00027148
579,0.00027915
580,0.00027435
581,0.00026887
582,0.00025856
583,0.0002602
584,0.00025173
585,0.00023588
586,0.00024678
587,0.00024489
588,0.00022024
589,0.00021732
590,0.00023497
591,0.00023008
592,0.0002153
593,0.00021851
594,0.00023431
595,0.00022098
596,0.00019941
597,0.00020481
598,0.00020818
599,0.00019123
600,0.00018783
601,0.00019302
602,0.00020454
603,0.00017877
604,0.00017006
605,0.00017892
606,0.00018699
607,0.00017056
608,0.00015878
609,0.00018372
610,0.00017952
611,0.00016991
612,0.00017302
613,0.00018225
614,0.00018387
615,0.00016164
616,0.00016044
617,0.00016295
618,0.00016061
619,0.00015453
620,0.00016257
621,0.00016154
622,0.00015398
623,0.00013653
624,0.00015032
625,0.00015404
626,0.00013935
627,0.00014051
628,0.00014391
629,0.00013945
630,0.0001323
631,0.00012949
632,0.00013938
633,0.00012817
634,0.00012195
635,0.00013512
636,0.00012874
637,0.00011756
638,0.00011014
639,0.00012289
640,0.00011869
641,0.0001221
642,0.00010649
643,0.00011202
644,0.00011511
645,0.00010583
646,9.6764e-05
647,0.00010642
648,0.00010938
649,9.6222e-05
650,9.1377e-05
651,9.5323e-05
652,9.4663e-05
653,9.0111e-05
654,8.6564e-05
655,9.0621e-05
656,8.8598e-05
657,7.6586e-05
658,7.5135e-05
659,8.3648e-05
660,8.2909e-05
661,7.1593e-05
662,8.1007e-05
663,8.5681e-05
664,6.9835e-05
665,6.3903e-05
666,7.4647e-05
667,7.0082e-05
668,7.5488e-05
669,6.863e-05
670,6.7347e-05
671,7.3068e-05
672,7.5118e-05
673,6.7765e-05
674,6.0351e-05
675,6.1768e-05
676,6.451e-05
677,5.4828e-05
678,5.8625e-05
679,6.2826e-05
680,5.7556e-05
681,6.052e-05
682,6.1932e-05
683,5.2393e-05
684,5.507e-05
685,5.4735e-05
686,5.7793e-05
687,4.3221e-05
688,5.94e-05
689,4.0936e-05
690,4.9415e-05
691,4.5938e-05
692,3.9968e-05
693,3.6257e-05
694,5.1792e-05
695,4.3298e-05
696,2.5555e-05
697,3.1191e-05
698,2.0645e-05
699,2.6602e-05
700,2.9776e-05
701,2.7535e-05
702,2.4116e-05
703,2.151e-05
704,1.6106e-05
705,8.3579e-06
706,2.2058e-05
707,1.8636e-05
708,7.0976e-06
709,1.9079e-05
710,1.554e-06
711,1e-09
712,1e-09
713,1.2429e-05
714,1e-09
715,1e-09
716,1e-09
717,1e-09
718,1e-09
719,1e-09
720,1e-09
721,1e-09
722,1e-09
723,1e-09
724,1e-09
725,1e-09
726,1e-09
727,1e-09
728,1e-09
729,1e-09
730,1e-09
731,1e-09
732,1e-09
733,1e-09
734,1e-09
735,1e-09
736,1e-09
737,1e-09
738,1e-09
739,1e-09
740,1e-09
741,1e-09
742,1e-09
743,1e-09
744,1e-09
745,1e-09
746,1e-09
747,1e-09
748,1.1881e-05
749,1.1973e-06
750,1.5937e-06
